0    Mesh check switch
2    dimensionality
1    Problem code (1: potential, 2: elasticity, 3: thermoelasticity)
1    number of materials
1  80.0  80.0       material_number    lambda_x  lambda_y
         808        :TOTAL NUMBER OF NODE
           1  0.30000001      0.10000000    
           2  0.30000001      0.10625000    
           3  0.30000001      0.11250000    
           4  0.30000001      0.11875000    
           5  0.30000001      0.12500000    
           6  0.30000001      0.13124999    
           7  0.30000001      0.13750000    
           8  0.30000001      0.14375000    
           9  0.30000001      0.15000001    
          10  0.29393941      0.15000001    
          11  0.28787878      0.15000001    
          12  0.28181818      0.15000001    
          13  0.27575758      0.15000001    
          14  0.26969695      0.15000001    
          15  0.26363635      0.15000001    
          16  0.25757575      0.15000001    
          17  0.25151515      0.15000001    
          18  0.24545453      0.15000001    
          19  0.23939393      0.15000001    
          20  0.23333333      0.15000001    
          21  0.22727272      0.15000001    
          22  0.22121212      0.15000001    
          23  0.21515152      0.15000001    
          24  0.20909090      0.15000001    
          25  0.20303030      0.15000001    
          26  0.19696970      0.15000001    
          27  0.19090910      0.15000001    
          28  0.18484849      0.15000001    
          29  0.17878789      0.15000001    
          30  0.17272729      0.15000001    
          31  0.16666666      0.15000001    
          32  0.16060606      0.15000001    
          33  0.15454546      0.15000001    
          34  0.14848486      0.15000001    
          35  0.14242424      0.15000001    
          36  0.13636364      0.15000001    
          37  0.13030303      0.15000001    
          38  0.12424242      0.15000001    
          39  0.11818182      0.15000001    
          40  0.11212121      0.15000001    
          41  0.10606061      0.15000001    
          42  0.10000000      0.15000001    
          43  9.98257101E-02  0.14409843    
          44  9.92873684E-02  0.13808286    
          45  9.83637348E-02  0.13198403    
          46  9.71201956E-02  0.12617423    
          47  9.55073163E-02  0.12036300    
          48  9.35147852E-02  0.11457422    
          49  9.12159160E-02  0.10901639    
          50  8.85839835E-02  0.10360088    
          51  8.56020376E-02  9.83057916E-02
          52  8.23083594E-02  9.32079777E-02
          53  7.87369385E-02  8.83518532E-02
          54  7.48647600E-02  8.37031826E-02
          55  7.07106814E-02  7.92893246E-02
          56  6.62968159E-02  7.51352385E-02
          57  6.16481453E-02  7.12630525E-02
          58  5.67920208E-02  6.76916391E-02
          59  5.16942069E-02  6.43979609E-02
          60  4.63991128E-02  6.14160150E-02
          61  4.09836061E-02  5.87840788E-02
          62  3.54257710E-02  5.64852208E-02
          63  2.96369977E-02  5.44926785E-02
          64  2.38257647E-02  5.28797992E-02
          65  1.80159751E-02  5.16362637E-02
          66  1.19171347E-02  5.07126302E-02
          67  5.90157369E-03  5.01742922E-02
          68  8.88178400E-18  5.00000007E-02
          69   0.0000000      4.37499993E-02
          70  8.88178400E-18  3.75000015E-02
          71   0.0000000      3.12500000E-02
          72  1.77635680E-17  2.50000004E-02
          73  1.77635680E-17  1.87500007E-02
          74   0.0000000      1.25000002E-02
          75  8.88178400E-18  6.25000009E-03
          76  1.77635680E-17   0.0000000    
          77  5.88235306E-03   0.0000000    
          78  1.17647061E-02   0.0000000    
          79  1.76470596E-02   0.0000000    
          80  2.35294122E-02   0.0000000    
          81  2.94117648E-02   0.0000000    
          82  3.52941193E-02   0.0000000    
          83  4.11764719E-02   0.0000000    
          84  4.70588244E-02   0.0000000    
          85  5.29411733E-02   0.0000000    
          86  5.88235296E-02   0.0000000    
          87  6.47058785E-02   0.0000000    
          88  7.05882385E-02   0.0000000    
          89  7.64705911E-02   0.0000000    
          90  8.23529437E-02 -3.55271360E-17
          91  8.82352889E-02   0.0000000    
          92  9.41176489E-02   0.0000000    
          93  0.10000000       0.0000000    
          94  0.10000000      5.83333336E-03
          95  0.10000000      1.16666667E-02
          96  0.10000000      1.75000001E-02
          97  0.10000000      2.33333334E-02
          98  0.10000000      2.91666668E-02
          99  0.10000000      3.50000001E-02
         100  0.10000000      4.08333354E-02
         101  0.10000000      4.66666669E-02
         102  0.10000000      5.24999984E-02
         103  0.10000000      5.83333336E-02
         104  0.10000000      6.41666651E-02
         105  0.10000000      7.00000003E-02
         106  0.10583333      7.00000003E-02
         107  0.11166667      7.00000003E-02
         108  0.11750000      7.00000003E-02
         109  0.12333333      7.00000003E-02
         110  0.12916666      7.00000003E-02
         111  0.13500001      7.00000003E-02
         112  0.14083333      7.00000003E-02
         113  0.14666668      7.00000003E-02
         114  0.15250000      7.00000003E-02
         115  0.15833333      7.00000003E-02
         116  0.16416666      7.00000003E-02
         117  0.17000000      7.00000003E-02
         118  0.17000000      6.41666651E-02
         119  0.17000000      5.83333336E-02
         120  0.17000000      5.24999984E-02
         121  0.17000000      4.66666669E-02
         122  0.17000000      4.08333354E-02
         123  0.17000000      3.50000001E-02
         124  0.17000000      2.91666668E-02
         125  0.17000000      2.33333334E-02
         126  0.17000000      1.75000001E-02
         127  0.17000000      1.16666667E-02
         128  0.17000000      5.83333336E-03
         129  0.17000000       0.0000000    
         130  0.17600000       0.0000000    
         131  0.18200001       0.0000000    
         132  0.18799999       0.0000000    
         133  0.19399999       0.0000000    
         134  0.20000000       0.0000000    
         135  0.20017429      5.90157509E-03
         136  0.20071262      1.19171366E-02
         137  0.20163625      1.80159789E-02
         138  0.20287982      2.38257665E-02
         139  0.20449269      2.96370015E-02
         140  0.20648521      3.54257748E-02
         141  0.20878409      4.09836061E-02
         142  0.21141602      4.63991128E-02
         143  0.21439797      5.16942106E-02
         144  0.21769165      5.67920245E-02
         145  0.22126307      6.16481453E-02
         146  0.22513525      6.62968159E-02
         147  0.22928932      7.07106814E-02
         148  0.23370318      7.48647600E-02
         149  0.23835187      7.87369460E-02
         150  0.24320798      8.23083594E-02
         151  0.24830580      8.56020376E-02
         152  0.25360090      8.85839835E-02
         153  0.25901639      9.12159160E-02
         154  0.26457423      9.35147852E-02
         155  0.27036300      9.55073163E-02
         156  0.27617425      9.71201956E-02
         157  0.28198403      9.83637348E-02
         158  0.28808287      9.92873684E-02
         159  0.29409844      9.98257101E-02
         160  0.29585704      0.14579771    
         161  9.59689990E-02  3.98484012E-03
         162  0.17429653      4.08025784E-03
         163  3.99647187E-03  4.23261058E-03
         164  4.22260212E-03  4.57906574E-02
         165  0.29576850      0.10421801    
         166  0.19611432      4.12687520E-03
         167  0.10406318      0.14574099    
         168  0.17537364      9.18642059E-03
         169  9.48849469E-02  9.07685235E-03
         170  9.08439085E-02  4.98752203E-03
         171  9.10663139E-03  5.31470776E-03
         172  0.29055539      0.14480092    
         173  0.17979397      5.29433554E-03
         174  0.10924248      0.14440824    
         175  0.19108984      5.38999680E-03
         176  0.29023772      0.10516723    
         177  0.29470426      0.14042510    
         178  0.10485687      0.14027116    
         179  0.29478967      0.10963225    
         180  0.19573884      9.48585849E-03
         181  9.66944918E-03  4.49357405E-02
         182  5.06094471E-03  9.67456773E-03
         183  5.54550346E-03  4.04189378E-02
         184  0.17577553      1.46695264E-02
         185  9.41059813E-02  1.45247309E-02
         186  1.45704029E-02  5.77965518E-03
         187  8.53909180E-02  5.36227645E-03
         188  0.17566587      2.03740336E-02
         189  9.40644816E-02  2.00643372E-02
         190  0.28490388      0.14447598    
         191  0.17536758      2.62116548E-02
         192  9.46056619E-02  2.60876268E-02
         193  0.17514771      3.21535617E-02
         194  0.17510280      3.80664542E-02
         195  0.17515647      4.38903756E-02
         196  0.17518525      4.97445837E-02
         197  0.17523809      5.57557680E-02
         198  0.17542255      6.19632639E-02
         199  0.17502151      6.81076124E-02
         200  9.48556066E-02  3.21251303E-02
         201  9.49439108E-02  3.80399786E-02
         202  9.50081050E-02  4.39011902E-02
         203  9.50445086E-02  4.97776754E-02
         204  9.49940383E-02  5.57510220E-02
         205  9.48142335E-02  6.19150177E-02
         206  9.45171043E-02  6.83482364E-02
         207  0.18566874      6.69931574E-03
         208  0.11473474      0.14413297    
         209  2.03201715E-02  5.88259567E-03
         210  7.96635449E-02  5.37790917E-03
         211  2.62753144E-02  5.68846753E-03
         212  7.36938268E-02  5.19238692E-03
         213  6.77241907E-02  5.09636477E-03
         214  3.22327130E-02  5.46924211E-03
         215  3.81924137E-02  5.25460020E-03
         216  6.18129671E-02  5.06500714E-03
         217  5.59360944E-02  5.05458517E-03
         218  4.41489518E-02  5.10593969E-03
         219  5.00622131E-02  5.05572325E-03
         220  0.27898178      0.14449248    
         221  0.27282679      0.14467116    
         222  0.12086851      0.14452042    
         223  0.26668370      0.14472190    
         224  0.26060304      0.14471543    
         225  0.25454798      0.14471151    
         226  0.24849361      0.14471903    
         227  0.24243233      0.14473338    
         228  0.23636451      0.14474680    
         229  0.23030199      0.14474943    
         230  0.22424097      0.14475013    
         231  0.21818027      0.14475034    
         232  0.21211965      0.14475042    
         233  0.20605904      0.14475043    
         234  0.19999839      0.14475037    
         235  0.19393779      0.14475027    
         236  0.18787722      0.14475015    
         237  0.18181664      0.14475007    
         238  0.17575602      0.14475004    
         239  0.16969544      0.14475000    
         240  0.16363525      0.14475028    
         241  0.15757596      0.14475220    
         242  0.15151705      0.14475706    
         243  0.14545602      0.14476329    
         244  0.29383811      0.13467407    
         245  0.12710938      0.14470610    
         246  0.13328061      0.14475773    
         247  0.13938521      0.14476666    
         248  0.29446569      0.11567333    
         249  0.29373923      0.12873891    
         250  0.29424641      0.12220264    
         251  5.85722458E-03  1.55342016E-02
         252  5.81302401E-03  2.15047691E-02
         253  5.44636091E-03  2.81756781E-02
         254  5.70316240E-03  3.47353704E-02
         255  0.28405997      0.10602402    
         256  0.10433622      0.13454309    
         257  0.19620310      1.54809393E-02
         258  1.54433977E-02  4.53176610E-02
         259  0.27791876      0.10390505    
         260  0.27182713      0.10189621    
         261  0.26570782      9.96670052E-02
         262  0.25967824      9.74292457E-02
         263  0.25386685      9.49331671E-02
         264  0.24820839      9.21792239E-02
         265  0.24288230      8.90262574E-02
         266  0.23776524      8.53647143E-02
         267  0.23246531      8.14595893E-02
         268  0.22756976      7.72940367E-02
         269  0.22293709      7.24447072E-02
         270  0.21823445      6.76070675E-02
         271  0.21455739      6.25563785E-02
         272  0.21157102      5.69458865E-02
         273  0.20837960      5.11748977E-02
         274  0.20497812      4.55485918E-02
         275  0.20241360      4.01230529E-02
         276  0.20058545      3.40744294E-02
         277  0.19850440      2.78263688E-02
         278  0.19703104      2.17756368E-02
         279  2.16618367E-02  4.67156842E-02
         280  2.78955102E-02  4.84244972E-02
         281  3.43287028E-02  5.01511060E-02
         282  4.02396470E-02  5.21967299E-02
         283  4.59237285E-02  5.49284890E-02
         284  5.13963923E-02  5.78760765E-02
         285  5.66153228E-02  6.12670854E-02
         286  6.18427321E-02  6.51065037E-02
         287  6.72141388E-02  6.90795779E-02
         288  7.22118914E-02  7.31002390E-02
         289  7.69676343E-02  7.75023848E-02
         290  8.16583186E-02  8.18993747E-02
         291  8.54047611E-02  8.67165476E-02
         292  8.85766223E-02  9.23908055E-02
         293  9.17078182E-02  9.81875509E-02
         294  9.47351083E-02  0.10405744    
         295  9.75669324E-02  0.10991345    
         296  0.10012516      0.11575440    
         297  0.10185916      0.12164834    
         298  0.10301648      0.12817423    
         299  0.10141513      7.60651007E-02
         300  0.10796816      7.61275738E-02
         301  0.11439858      7.58628771E-02
         302  0.12052532      7.58028850E-02
         303  0.12644832      7.58050084E-02
         304  0.13230932      7.57987276E-02
         305  0.13815549      7.57969692E-02
         306  0.14400597      7.57991672E-02
         307  0.14986552      7.58126006E-02
         308  0.15573023      7.58437663E-02
         309  0.16159031      7.58960992E-02
         310  0.16738163      7.57481307E-02
         311  0.17328149      7.48518258E-02
         312  9.47110951E-02  7.50025511E-02
         313  1.07647730E-02  1.13480557E-02
         314  1.66527238E-02  1.18284225E-02
         315  2.29988508E-02  1.15846954E-02
         316  2.91191600E-02  1.12474654E-02
         317  3.51350121E-02  1.07759349E-02
         318  4.12058607E-02  1.03184534E-02
         319  4.71925735E-02  1.01415291E-02
         320  5.30791171E-02  1.01268627E-02
         321  5.89479320E-02  1.01442290E-02
         322  6.48405626E-02  1.01742148E-02
         323  7.08262771E-02  1.02264285E-02
         324  7.70118982E-02  1.04479622E-02
         325  8.33147541E-02  1.08852051E-02
         326  8.91626999E-02  1.05848350E-02
         327  8.77124593E-02  1.65125746E-02
         328  8.90556648E-02  2.30427869E-02
         329  8.96511674E-02  2.93475874E-02
         330  8.97751153E-02  3.53097618E-02
         331  8.99189115E-02  4.11576517E-02
         332  9.00694355E-02  4.70225364E-02
         333  9.01250467E-02  5.29593751E-02
         334  8.99758786E-02  5.91197573E-02
         335  8.95761475E-02  6.56346008E-02
         336  8.91261324E-02  7.25800395E-02
         337  1.22836372E-02  1.78240910E-02
         338  1.06692351E-02  2.47576907E-02
         339  1.06837070E-02  3.20744887E-02
         340  1.20101608E-02  3.89224254E-02
         341  8.06254968E-02  1.56502500E-02
         342  8.34296197E-02  2.08215285E-02
         343  7.40380287E-02  1.53149692E-02
         344  6.79357275E-02  1.53487138E-02
         345  6.20107800E-02  1.53272338E-02
         346  5.61236367E-02  1.52612701E-02
         347  5.02480567E-02  1.52479466E-02
         348  4.43416014E-02  1.52670387E-02
         349  3.82023193E-02  1.57246478E-02
         350  3.20231803E-02  1.67447720E-02
         351  2.60052737E-02  1.73242707E-02
         352  1.93856824E-02  1.72673780E-02
         353  1.66618396E-02  2.29743347E-02
         354  1.48739461E-02  2.87861079E-02
         355  1.68939345E-02  3.47628109E-02
         356  1.91632248E-02  4.05119658E-02
         357  2.56495196E-02  4.21176068E-02
         358  3.20889242E-02  4.43640277E-02
         359  8.44712332E-02  2.69445870E-02
         360  8.44206214E-02  3.27064246E-02
         361  8.46098065E-02  3.84211764E-02
         362  8.49849209E-02  4.42856848E-02
         363  8.52039829E-02  5.01758419E-02
         364  8.52711946E-02  5.61550409E-02
         365  8.48837271E-02  6.24696910E-02
         366  8.41714963E-02  6.89630285E-02
         367  3.92063819E-02  4.55010682E-02
         368  4.53497171E-02  4.83633317E-02
         369  5.09680398E-02  5.11004291E-02
         370  5.62899113E-02  5.43479957E-02
         371  6.58792108E-02  5.65897860E-02
         372  6.68426454E-02  6.30240664E-02
         373  7.28976503E-02  6.67440221E-02
         374  7.81622976E-02  7.12667033E-02
         375  8.33428651E-02  7.55611584E-02
         376  8.88929740E-02  7.99272358E-02
         377  9.18184370E-02  8.62732604E-02
         378  9.47475880E-02  9.24955383E-02
         379  9.77344513E-02  9.87634659E-02
         380  0.10098264      0.10482907    
         381  0.10408688      0.11075554    
         382  0.10701852      0.11668811    
         383  0.10734549      0.12403184    
         384  0.10871585      0.13109288    
         385  0.11065433      0.13798644    
         386  0.11738496      0.13894598    
         387  0.11462345      0.13331062    
         388  0.12389230      0.13942131    
         389  0.13018572      0.13953476    
         390  0.13633454      0.13954073    
         391  0.14242072      0.13953052    
         392  0.14848390      0.13951810    
         393  0.15454285      0.13950731    
         394  0.16060251      0.13950166    
         395  0.16666311      0.13950029    
         396  0.17272402      0.13950035    
         397  0.17878476      0.13950060    
         398  0.18484540      0.13950090    
         399  0.19090609      0.13950114    
         400  0.19696687      0.13950114    
         401  0.20302767      0.13950080    
         402  0.20908831      0.13950019    
         403  0.21514864      0.13949968    
         404  0.22120903      0.13949932    
         405  0.22727096      0.13949716    
         406  0.23333549      0.13949150    
         407  0.23940875      0.13947660    
         408  0.24549975      0.13941611    
         409  0.25155351      0.13937043    
         410  0.25759071      0.13935775    
         411  0.26365268      0.13939162    
         412  0.26981333      0.13943972    
         413  0.27617514      0.13927101    
         414  0.28267467      0.13876943    
         415  0.28873101      0.13897800    
         416  0.12099221      0.13416976    
         417  0.12720954      0.13433382    
         418  0.13332130      0.13432747    
         419  0.13939273      0.13430078    
         420  0.14545164      0.13428074    
         421  0.15150893      0.13426483    
         422  0.15756841      0.13425510    
         423  0.16362962      0.13425156    
         424  0.16969104      0.13425140    
         425  0.17575212      0.13425228    
         426  0.18181317      0.13425317    
         427  0.18787439      0.13425341    
         428  0.19393578      0.13425253    
         429  0.19999696      0.13425049    
         430  0.20605759      0.13424785    
         431  0.21211733      0.13424583    
         432  0.21817690      0.13424528    
         433  0.22424015      0.13424301    
         434  0.23031445      0.13422470    
         435  0.23639393      0.13419473    
         436  0.24249518      0.13414194    
         437  0.24865152      0.13393810    
         438  0.25467265      0.13384876    
         439  0.26069388      0.13388407    
